Frequency (Hz)	Level (dB)
0.488281	-96.718910
0.976562	-96.458725
1.464844	-95.657814
1.953125	-94.356613
2.441406	-92.555931
2.929688	-90.495735
3.417969	-88.334641
3.906250	-86.505058
4.394531	-85.120308
4.882812	-83.700340
5.371094	-82.084068
5.859375	-80.857239
6.347656	-79.659111
6.835938	-78.394783
7.324219	-77.101173
7.812500	-76.585258
8.300781	-75.573006
8.789062	-74.736038
9.277344	-73.806190
9.765625	-73.068153
10.253906	-72.425804
10.742188	-71.389198
11.230469	-70.690132
11.718750	-70.278847
12.207031	-69.793999
12.695312	-69.398140
13.183594	-68.583389
13.671875	-68.153587
14.160156	-67.716843
14.648438	-67.309021
15.136719	-66.961304
15.625000	-66.643974
16.113281	-66.375656
16.601562	-66.031967
17.089844	-65.836624
17.578125	-65.512039
18.066406	-65.210846
18.554688	-65.012550
19.042969	-64.624863
19.531250	-64.615112
20.019531	-64.218147
20.507812	-63.802303
20.996094	-63.538792
21.484375	-63.455395
21.972656	-63.290001
22.460938	-63.012226
22.949219	-63.159042
23.437500	-62.419334
23.925781	-62.343334
24.414062	-62.242695
24.902344	-61.860661
25.390625	-61.663670
25.878906	-61.343243
26.367188	-61.141994
26.855469	-61.132427
27.343750	-61.048374
27.832031	-60.942112
28.320312	-60.482517
28.808594	-60.387093
29.296875	-60.564285
29.785156	-60.140781
30.273438	-60.229031
30.761719	-60.064838
31.250000	-59.857365
31.738281	-59.916775
32.226562	-59.792671
32.714844	-59.850182
33.203125	-59.550064
33.691406	-59.516754
34.179688	-59.476440
34.667969	-59.327015
35.156250	-59.260986
35.644531	-58.927963
36.132812	-59.009228
36.621094	-58.889484
37.109375	-58.755234
37.597656	-58.489265
38.085938	-58.520885
38.574219	-58.475830
39.062500	-58.338631
39.550781	-58.681515
40.039062	-58.479088
40.527344	-58.239426
41.015625	-58.459221
41.503906	-58.179680
41.992188	-58.371574
42.480469	-58.187908
42.968750	-58.100018
43.457031	-58.226074
43.945312	-58.132771
44.433594	-57.945560
44.921875	-58.272869
45.410156	-58.250702
45.898438	-58.106575
46.386719	-58.241325
46.875000	-57.971558
47.363281	-58.036858
47.851562	-58.236088
48.339844	-57.937813
48.828125	-58.148613
49.316406	-58.077629
49.804688	-58.308754
50.292969	-58.143929
50.781250	-58.136257
51.269531	-58.127750
51.757812	-57.874775
52.246094	-58.147285
52.734375	-58.303391
53.222656	-57.931507
53.710938	-58.215317
54.199219	-58.331787
54.687500	-58.492455
55.175781	-58.881325
55.664062	-58.433693
56.152344	-58.371181
56.640625	-57.968388
57.128906	-58.426853
57.617188	-58.800392
58.105469	-58.397255
58.593750	-59.321621
59.082031	-58.660938
59.570312	-59.093147
60.058594	-59.039352
60.546875	-58.704678
61.035156	-58.795834
61.523438	-59.089169
62.011719	-59.499573
62.500000	-59.290646
62.988281	-59.203426
63.476562	-59.723625
63.964844	-60.134892
64.453125	-59.877510
64.941406	-60.095089
65.429688	-60.185081
65.917969	-60.401089
66.406250	-60.258522
66.894531	-59.839005
67.382812	-60.321224
67.871094	-60.238567
68.359375	-60.601387
68.847656	-60.557487
69.335938	-60.683064
69.824219	-60.753231
70.312500	-60.983315
70.800781	-60.850536
71.289062	-61.300282
71.777344	-61.163155
72.265625	-61.558319
72.753906	-61.277203
73.242188	-61.028755
73.730469	-61.342644
74.218750	-62.173012
74.707031	-61.929432
75.195312	-61.978207
75.683594	-62.015537
76.171875	-62.236084
76.660156	-61.971558
77.148438	-62.729973
77.636719	-62.403687
78.125000	-62.895084
78.613281	-63.243309
79.101562	-63.646549
79.589844	-63.582848
80.078125	-63.636818
80.566406	-63.823856
81.054688	-63.413956
81.542969	-64.037758
82.031250	-63.867516
82.519531	-63.788033
83.007812	-63.684040
83.496094	-64.139572
83.984375	-64.319336
84.472656	-64.189758
84.960938	-64.569710
85.449219	-64.091820
85.937500	-63.930126
86.425781	-64.401192
86.914062	-64.333618
87.402344	-64.950874
87.890625	-64.888245
88.378906	-65.478783
88.867188	-65.970726
89.355469	-65.578781
89.843750	-66.012695
90.332031	-66.192627
90.820312	-65.962036
91.308594	-66.637230
91.796875	-66.585823
92.285156	-66.660164
92.773438	-67.324524
93.261719	-67.618149
93.750000	-67.647804
94.238281	-67.530899
94.726562	-67.883934
95.214844	-67.480186
95.703125	-68.326042
96.191406	-67.745880
96.679688	-68.476051
97.167969	-67.951782
97.656250	-68.108665
98.144531	-68.652359
98.632812	-68.554901
99.121094	-68.567215
99.609375	-68.676071
100.097656	-68.941750
100.585938	-69.048714
101.074219	-68.761238
101.562500	-69.414482
102.050781	-69.134262
102.539062	-69.880974
103.027344	-69.628006
103.515625	-69.110168
104.003906	-69.422073
104.492188	-69.640251
104.980469	-70.292419
105.468750	-70.180809
105.957031	-70.371346
106.445312	-69.591888
106.933594	-70.527451
107.421875	-70.043015
107.910156	-70.345154
108.398438	-70.758270
108.886719	-70.826599
109.375000	-69.928604
109.863281	-71.055016
110.351562	-71.335251
110.839844	-70.386475
111.328125	-71.163391
111.816406	-72.072906
112.304688	-71.966156
112.792969	-70.819580
113.281250	-71.391335
113.769531	-68.205475
114.257812	-68.351753
114.746094	-71.048447
115.234375	-71.788368
115.722656	-72.352638
116.210938	-71.917549
116.699219	-72.480949
117.187500	-72.035049
117.675781	-72.808388
118.164062	-72.465996
118.652344	-71.770706
119.140625	-72.978508
119.628906	-71.461105
120.117188	-71.662628
120.605469	-73.960564
121.093750	-73.126877
121.582031	-72.917198
122.070312	-73.266869
122.558594	-72.753113
123.046875	-73.353508
123.535156	-73.250412
124.023438	-74.580757
124.511719	-75.134262
125.000000	-73.903236
125.488281	-74.622795
125.976562	-74.662468
126.464844	-73.337509
126.953125	-73.859825
127.441406	-74.569801
127.929688	-74.955246
128.417969	-74.100945
128.906250	-74.238121
129.394531	-73.598991
129.882812	-75.124336
130.371094	-74.658875
130.859375	-76.781387
131.347656	-75.610916
131.835938	-75.120132
132.324219	-76.166077
132.812500	-75.148224
133.300781	-75.546524
133.789062	-74.768494
134.277344	-74.950897
134.765625	-75.332008
135.253906	-74.879395
135.742188	-74.965340
136.230469	-75.783936
136.718750	-74.606888
137.207031	-75.921097
137.695312	-76.407608
138.183594	-76.560860
138.671875	-74.748589
139.160156	-75.425697
139.648438	-74.238632
140.136719	-75.012825
140.625000	-74.996529
141.113281	-75.018417
141.601562	-76.100929
142.089844	-75.036179
142.578125	-75.234192
143.066406	-75.349937
143.554688	-75.880318
144.042969	-74.997375
144.531250	-75.466545
145.019531	-74.402283
145.507812	-75.262238
145.996094	-74.880981
146.484375	-75.483505
146.972656	-75.631798
147.460938	-75.563026
147.949219	-74.587379
148.437500	-74.303581
148.925781	-73.815239
149.414062	-74.699318
149.902344	-75.456100
150.390625	-74.925629
150.878906	-75.805573
151.367188	-74.986458
151.855469	-74.550941
152.343750	-75.089844
152.832031	-74.975395
153.320312	-74.717751
153.808594	-74.695160
154.296875	-76.003075
154.785156	-74.660660
155.273438	-74.043686
155.761719	-75.338417
156.250000	-75.070702
156.738281	-74.630104
157.226562	-74.876625
157.714844	-74.332840
158.203125	-75.746941
158.691406	-75.809723
159.179688	-75.378426
159.667969	-75.774803
160.156250	-74.606636
160.644531	-74.729591
161.132812	-75.806038
161.621094	-75.271606
162.109375	-74.860817
162.597656	-73.785637
163.085938	-75.273972
163.574219	-74.412994
164.062500	-75.177376
164.550781	-74.623817
165.039062	-75.131073
165.527344	-76.780830
166.015625	-76.153374
166.503906	-74.604118
166.992188	-74.614395
167.480469	-74.531914
167.968750	-75.479729
168.457031	-75.418083
168.945312	-75.423378
169.433594	-75.618713
169.921875	-74.389923
170.410156	-75.238266
170.898438	-74.999603
171.386719	-76.017349
171.875000	-75.760818
172.363281	-74.105392
172.851562	-75.165421
173.339844	-74.593796
173.828125	-75.013550
174.316406	-74.795677
174.804688	-75.237221
175.292969	-74.399727
175.781250	-74.735970
176.269531	-74.395309
176.757812	-73.434097
177.246094	-75.590210
177.734375	-74.833237
178.222656	-73.947594
178.710938	-75.256027
179.199219	-74.308372
179.687500	-74.898453
180.175781	-74.739532
180.664062	-74.775063
181.152344	-74.743675
181.640625	-75.979553
182.128906	-75.048325
182.617188	-75.117218
183.105469	-75.208992
183.593750	-75.102219
184.082031	-75.983620
184.570312	-74.664558
185.058594	-75.621872
185.546875	-74.633118
186.035156	-75.216042
186.523438	-74.707855
187.011719	-75.446579
187.500000	-75.931206
187.988281	-74.019623
188.476562	-75.247620
188.964844	-74.921043
189.453125	-75.673439
189.941406	-75.521217
190.429688	-75.082802
190.917969	-74.797050
191.406250	-74.870461
191.894531	-75.696823
192.382812	-75.974579
192.871094	-74.730225
193.359375	-75.620407
193.847656	-75.483009
194.335938	-75.300873
194.824219	-75.095947
195.312500	-75.493828
195.800781	-75.644257
196.289062	-75.604523
196.777344	-75.834534
197.265625	-76.134270
197.753906	-75.895508
198.242188	-75.675484
198.730469	-74.701988
199.218750	-75.735291
199.707031	-76.198929
200.195312	-74.876724
200.683594	-74.748253
201.171875	-75.625191
201.660156	-76.512871
202.148438	-74.883423
202.636719	-74.502525
203.125000	-75.249062
203.613281	-76.657394
204.101562	-75.930176
204.589844	-75.077377
205.078125	-75.925804
205.566406	-75.445961
206.054688	-75.296280
206.542969	-75.187927
207.031250	-75.595963
207.519531	-76.312233
208.007812	-75.996979
208.496094	-74.920029
208.984375	-76.082306
209.472656	-77.127090
209.960938	-76.148674
210.449219	-76.111763
210.937500	-77.414505
211.425781	-76.005058
211.914062	-76.725945
212.402344	-76.597572
212.890625	-76.204239
213.378906	-75.080429
213.867188	-75.807465
214.355469	-76.824928
214.843750	-76.504662
215.332031	-76.671638
215.820312	-77.303665
216.308594	-76.732063
216.796875	-76.021683
217.285156	-74.893768
217.773438	-75.932823
218.261719	-77.308525
218.750000	-77.392723
219.238281	-77.715523
219.726562	-76.899574
220.214844	-76.213066
220.703125	-75.847031
221.191406	-75.801872
221.679688	-76.426796
222.167969	-76.734726
222.656250	-76.324928
223.144531	-77.134071
223.632812	-75.662514
224.121094	-77.068588
224.609375	-76.629730
225.097656	-77.442848
225.585938	-76.939400
226.074219	-77.517448
226.562500	-76.874527
227.050781	-77.746391
227.539062	-77.101357
228.027344	-77.080421
228.515625	-77.487572
229.003906	-78.227791
229.492188	-77.328598
229.980469	-78.405342
230.468750	-77.778748
230.957031	-78.602692
231.445312	-77.775002
231.933594	-77.909195
232.421875	-77.395599
232.910156	-77.964287
233.398438	-77.000412
233.886719	-77.543167
234.375000	-76.643738
234.863281	-77.061798
235.351562	-78.105499
235.839844	-77.754715
236.328125	-78.152992
236.816406	-77.478737
237.304688	-74.513420
237.792969	-78.111252
238.281250	-79.804169
238.769531	-78.591248
239.257812	-78.518456
239.746094	-77.327393
240.234375	-79.560646
240.722656	-79.339485
241.210938	-79.172966
241.699219	-78.333427
242.187500	-78.252434
242.675781	-78.071922
243.164062	-79.096619
243.652344	-78.513115
244.140625	-78.609634
244.628906	-76.637932
245.117188	-76.544113
245.605469	-78.646507
246.093750	-78.401108
246.582031	-77.847549
247.070312	-76.632965
247.558594	-78.681480
248.046875	-78.424812
248.535156	-77.508888
249.023438	-79.095016
249.511719	-79.486465
250.000000	-78.064384
250.488281	-80.073074
250.976562	-78.643532
251.464844	-79.114052
251.953125	-78.174896
252.441406	-78.549980
252.929688	-78.570671
253.417969	-77.440590
253.906250	-78.191422
254.394531	-79.000694
254.882812	-78.755180
255.371094	-77.070549
255.859375	-75.940170
256.347656	-78.220367
256.835938	-80.773598
257.324219	-78.233170
257.812500	-77.109535
258.300781	-77.212418
258.789062	-78.753403
259.277344	-77.252930
259.765625	-79.274475
260.253906	-79.360062
260.742188	-79.190170
261.230469	-76.742851
261.718750	-77.952240
262.207031	-78.985008
262.695312	-77.960754
263.183594	-77.928146
263.671875	-77.875870
264.160156	-78.900368
264.648438	-77.538567
265.136719	-79.279427
265.625000	-77.477341
266.113281	-78.674255
266.601562	-79.308151
267.089844	-77.757469
267.578125	-79.065872
268.066406	-79.399605
268.554688	-78.844620
269.042969	-78.827286
269.531250	-79.228226
270.019531	-79.025543
270.507812	-77.979424
270.996094	-78.856392
271.484375	-78.011154
271.972656	-79.004105
272.460938	-77.553818
272.949219	-80.719810
273.437500	-80.421104
273.925781	-78.740990
274.414062	-76.819916
274.902344	-80.459099
275.390625	-78.916245
275.878906	-78.197586
276.367188	-77.647980
276.855469	-77.334618
277.343750	-77.340759
277.832031	-77.948151
278.320312	-78.897331
278.808594	-76.846748
279.296875	-78.537987
279.785156	-78.992760
280.273438	-78.830360
280.761719	-78.890312
281.250000	-79.096336
281.738281	-78.004845
282.226562	-77.068520
282.714844	-80.078133
283.203125	-78.154198
283.691406	-78.575851
284.179688	-79.717079
284.667969	-79.130455
285.156250	-79.572510
285.644531	-79.726089
286.132812	-79.302429
286.621094	-79.307594
287.109375	-78.008476
287.597656	-80.253502
288.085938	-78.490425
288.574219	-79.492203
289.062500	-80.005096
289.550781	-79.206482
290.039062	-78.490829
290.527344	-77.989288
291.015625	-78.334213
291.503906	-78.035027
291.992188	-79.416023
292.480469	-79.622482
292.968750	-78.985611
293.457031	-77.651802
293.945312	-79.871033
294.433594	-78.290833
294.921875	-79.270889
295.410156	-80.607513
295.898438	-80.157272
296.386719	-79.152840
296.875000	-78.279060
297.363281	-80.161331
297.851562	-79.866554
298.339844	-78.895760
298.828125	-78.412056
299.316406	-77.051910
299.804688	-78.500626
300.292969	-80.708023
300.781250	-79.326294
301.269531	-80.294815
301.757812	-80.883293
302.246094	-79.995621
302.734375	-77.669861
303.222656	-79.409775
303.710938	-81.893135
304.199219	-79.092163
304.687500	-79.651421
305.175781	-80.594223
305.664062	-79.065598
306.152344	-79.180984
306.640625	-77.689407
307.128906	-80.546097
307.617188	-77.978615
308.105469	-77.853928
308.593750	-81.777267
309.082031	-79.058556
309.570312	-78.282608
310.058594	-76.456734
310.546875	-81.083679
311.035156	-78.924644
311.523438	-80.154396
312.011719	-81.326721
312.500000	-77.893097
312.988281	-79.360764
313.476562	-78.392159
313.964844	-77.296104
314.453125	-77.751167
314.941406	-79.231308
315.429688	-78.209503
315.917969	-81.074043
316.406250	-78.078110
316.894531	-77.455078
317.382812	-79.481865
317.871094	-79.295609
318.359375	-78.136108
318.847656	-77.128860
319.335938	-80.567131
319.824219	-80.425842
320.312500	-78.974701
320.800781	-77.950661
321.289062	-79.909546
321.777344	-79.111687
322.265625	-79.314743
322.753906	-77.545990
323.242188	-79.105148
323.730469	-78.580330
324.218750	-77.521317
324.707031	-77.680908
325.195312	-78.732765
325.683594	-79.040237
326.171875	-78.792542
326.660156	-77.889648
327.148438	-78.279144
327.636719	-79.619545
328.125000	-80.698326
328.613281	-77.102478
329.101562	-78.422104
329.589844	-77.253769
330.078125	-78.126442
330.566406	-78.457222
331.054688	-76.946800
331.542969	-78.458092
332.031250	-80.013023
332.519531	-80.390053
333.007812	-79.503677
333.496094	-78.226822
333.984375	-77.926376
334.472656	-77.451012
334.960938	-77.902916
335.449219	-77.875023
335.937500	-79.408974
336.425781	-78.312805
336.914062	-78.992989
337.402344	-78.393242
337.890625	-78.854912
338.378906	-78.643028
338.867188	-79.651154
339.355469	-81.002602
339.843750	-79.972908
340.332031	-77.808037
340.820312	-76.659798
341.308594	-78.484970
341.796875	-79.529976
342.285156	-78.353561
342.773438	-77.691437
343.261719	-78.868973
343.750000	-76.172997
344.238281	-77.115845
344.726562	-77.848961
345.214844	-75.750458
345.703125	-79.895988
346.191406	-78.514236
346.679688	-77.416840
347.167969	-75.536827
347.656250	-79.918198
348.144531	-79.345787
348.632812	-78.341644
349.121094	-79.012230
349.609375	-79.085876
350.097656	-78.695122
350.585938	-78.303596
351.074219	-77.673485
351.562500	-75.917152
352.050781	-78.484528
352.539062	-77.300156
353.027344	-79.719490
353.515625	-76.371452
354.003906	-76.693542
354.492188	-75.844803
354.980469	-78.989380
355.468750	-75.658058
355.957031	-77.268234
356.445312	-77.313103
356.933594	-76.954834
357.421875	-77.109238
357.910156	-76.567879
358.398438	-80.152939
358.886719	-78.089676
359.375000	-76.752930
359.863281	-78.873398
360.351562	-75.411339
360.839844	-76.364365
361.328125	-78.967445
361.816406	-78.554207
362.304688	-77.600990
362.792969	-76.922371
363.281250	-76.542229
363.769531	-76.992493
364.257812	-77.724693
364.746094	-77.890160
365.234375	-77.089424
365.722656	-78.020149
366.210938	-79.779533
366.699219	-78.029572
367.187500	-76.654251
367.675781	-77.654037
368.164062	-78.356300
368.652344	-76.391510
369.140625	-77.944809
369.628906	-77.042870
370.117188	-77.813591
370.605469	-76.217163
371.093750	-78.371025
371.582031	-77.380234
372.070312	-77.476288
372.558594	-77.144142
373.046875	-75.971642
373.535156	-78.687256
374.023438	-77.708412
374.511719	-77.002922
375.000000	-76.435516
375.488281	-75.565697
375.976562	-77.033943
376.464844	-79.315376
376.953125	-77.159103
377.441406	-76.775482
377.929688	-77.737038
378.417969	-77.745911
378.906250	-77.130867
379.394531	-76.187737
379.882812	-79.087967
380.371094	-77.061073
380.859375	-76.865433
381.347656	-76.341873
381.835938	-75.112427
382.324219	-74.483131
382.812500	-76.781883
383.300781	-76.432800
383.789062	-76.266464
384.277344	-76.217186
384.765625	-76.790237
385.253906	-74.923225
385.742188	-77.189995
386.230469	-76.228638
386.718750	-77.768509
387.207031	-78.132233
387.695312	-76.647240
388.183594	-76.838348
388.671875	-76.808960
389.160156	-78.073410
389.648438	-75.717873
390.136719	-77.011482
390.625000	-76.550194
391.113281	-76.124458
391.601562	-78.200920
392.089844	-78.434891
392.578125	-77.528107
393.066406	-78.794350
393.554688	-75.773018
394.042969	-76.225426
394.531250	-78.412407
395.019531	-76.308868
395.507812	-75.646294
395.996094	-76.267273
396.484375	-76.052452
396.972656	-73.495468
397.460938	-77.001022
397.949219	-76.214714
398.437500	-76.705627
398.925781	-77.807877
399.414062	-75.591103
399.902344	-75.793907
400.390625	-77.920998
400.878906	-76.234779
401.367188	-78.530830
401.855469	-75.686050
402.343750	-76.294914
402.832031	-74.434525
403.320312	-73.294479
403.808594	-75.720512
404.296875	-76.875595
404.785156	-74.897369
405.273438	-79.000832
405.761719	-78.936111
406.250000	-75.310501
406.738281	-77.028587
407.226562	-77.026184
407.714844	-74.967888
408.203125	-77.678230
408.691406	-76.789238
409.179688	-74.380127
409.667969	-75.096329
410.156250	-77.292870
410.644531	-77.039055
411.132812	-76.546173
411.621094	-75.562790
412.109375	-77.482994
412.597656	-77.496513
413.085938	-77.493431
413.574219	-76.739510
414.062500	-77.121231
414.550781	-75.592720
415.039062	-76.275154
415.527344	-75.066246
416.015625	-75.173386
416.503906	-75.238930
416.992188	-76.965782
417.480469	-74.797531
417.968750	-77.193840
418.457031	-75.278252
418.945312	-75.562187
419.433594	-74.480507
419.921875	-76.102493
420.410156	-74.718132
420.898438	-74.047089
421.386719	-75.621407
421.875000	-74.423325
422.363281	-74.701874
422.851562	-73.782928
423.339844	-75.869614
423.828125	-76.879639
424.316406	-76.451263
424.804688	-74.948921
425.292969	-76.171997
425.781250	-74.151848
426.269531	-75.874474
426.757812	-75.430565
427.246094	-74.945686
427.734375	-74.894478
428.222656	-76.416626
428.710938	-77.350426
429.199219	-75.924896
429.687500	-73.887421
430.175781	-74.006256
430.664062	-75.847939
431.152344	-73.575928
431.640625	-74.691429
432.128906	-73.923248
432.617188	-73.288765
433.105469	-76.467018
433.593750	-75.957710
434.082031	-74.329781
434.570312	-77.178703
435.058594	-73.870964
435.546875	-74.683014
436.035156	-74.766251
436.523438	-75.398514
437.011719	-75.756500
437.500000	-72.931412
437.988281	-71.870956
438.476562	-73.844002
438.964844	-73.185936
439.453125	-75.639549
439.941406	-76.047264
440.429688	-74.879761
440.917969	-74.233765
441.406250	-73.569504
441.894531	-75.352455
442.382812	-72.462959
442.871094	-73.252571
443.359375	-72.308754
443.847656	-74.240776
444.335938	-74.666000
444.824219	-73.537041
445.312500	-77.446457
445.800781	-75.427917
446.289062	-73.267471
446.777344	-71.885590
447.265625	-74.002380
447.753906	-75.443611
448.242188	-72.850540
